time[s],theta[rad],thetap[rad/s]
0.0,3.141592653589793,0.0
0.06006006006006006,3.141982599429665,0.01951242633975339
0.12012012012012012,3.144728822421365,0.07880371942079846
0.18018018018018017,3.1522032864049554,0.1797359806129637
0.24024024024024024,3.167205560780042,0.326576908196997
0.3003003003003003,3.1924080621924933,0.5175751470067547
0.36036036036036034,3.230078110310629,0.7420400061415083
0.42042042042042044,3.281386411033112,0.9585391938704222
0.4804804804804805,3.343351999073807,1.0764986624554842
0.5405405405405406,3.406255128709386,0.9710238702737303
0.6006006006006006,3.4537652082842913,0.5627488122153079
0.6606606606606606,3.468827334972445,-0.09396271610313062
0.7207207207207207,3.43976328046073,-0.8910433254789518
0.7807807807807807,3.360993426253383,-1.725622581312687
0.8408408408408409,3.235521622228547,-2.4054857934408362
0.9009009009009009,3.0815668282374036,-2.614786864955129
0.960960960960961,2.933391357039145,-2.2384889331779996
1.021021021021021,2.8190948516765664,-1.5406014323046544
1.0810810810810811,2.7482632272491707,-0.8257655591857642
1.1411411411411412,2.7182647833300164,-0.19131566793699029
1.2012012012012012,2.7228941542680123,0.32322993597867195
1.2612612612612613,2.754068777586847,0.6903622710829573
1.3213213213213213,2.8026829831865387,0.9003899632602639
1.3813813813813813,2.8594804755464187,0.972288649663554
1.4414414414414414,2.917701983211714,0.9554001509671961
1.5015015015015014,2.97350228356593,0.8992563145678956
1.5615615615615615,3.0257271506717363,0.8418358735194778
1.6216216216216217,3.075000574424454,0.8023930350209934
1.6816816816816818,3.1226850793800076,0.7909283797243492
1.7417417417417418,3.1705306571698357,0.8101596985785667
1.8018018018018018,3.2205198219257425,0.8604609129018563
1.8618618618618619,3.2745122533408426,0.9361331116985184
1.921921921921922,3.3332170168170228,1.0166294959006972
1.981981981981982,3.396049640861661,1.0667148994293096
2.042042042042042,3.4594735015124725,1.027127734553271
2.1021021021021022,3.516360997748601,0.8388292178404896
2.1621621621621623,3.5569314927304085,0.4791476313655645
2.2222222222222223,3.570994092556204,-0.042525026835746105
2.2822822822822824,3.5486432659149942,-0.7153317613616061
2.3423423423423424,3.4831751164144267,-1.4707853074940642
2.4024024024024024,3.372160276984227,-2.2119601411901173
2.4624624624624625,3.2222648305378283,-2.705639903809962
2.5225225225225225,3.0594793045765702,-2.603016632163536
2.5825825825825826,2.920895270606919,-1.9466338439647028
2.6426426426426426,2.828925500092411,-1.1067610992240935
2.7027027027027026,2.7874399128794174,-0.2881013781445254
2.7627627627627627,2.791981453119903,0.4151202551402461
2.8228228228228227,2.833147999101597,0.9132445200088961
2.8828828828828827,2.8962876551580843,1.1388205573192673
2.942942942942943,2.9648425576411697,1.110533034590271
3.003003003003003,3.0268232874853416,0.9387713347858183
3.063063063063063,3.077052003162327,0.7337987724602545
3.123123123123123,3.1154119488977527,0.5496979768647667
3.183183183183183,3.1438506831741297,0.40564671925947815
3.2432432432432434,3.1648922495619165,0.3036836262818921
3.3033033033033035,3.181070582556769,0.2418678418244794
3.3633633633633635,3.1947490779697496,0.21824108980743073
3.4234234234234235,3.2081192095815543,0.23084602195401271
3.4834834834834836,3.2229307669688363,0.2746601473198434
3.5435435435435436,3.2411245007343963,0.3488313220831296
3.6036036036036037,3.2657656393563474,0.46303481667469487
3.6636636636636637,3.2983065547036845,0.603258457565117
3.7237237237237237,3.338418425563751,0.729802375105538
3.7837837837837838,3.383956727338768,0.7777204170875599
3.843843843843844,3.428470323116565,0.6742735007796177
3.903903903903904,3.4607325928479944,0.3639150869615176
3.963963963963964,3.4684115133318145,-0.14161814638215026
4.024024024024024,3.440782595185912,-0.7958539815305771
4.084084084084084,3.3715958122057375,-1.5028828699930346
4.1441441441441444,3.262740761349532,-2.0881221844844235
4.2042042042042045,3.1284573144784975,-2.2938951550619366
4.2642642642642645,2.9973799031500743,-1.9906724868711725
4.324324324324325,2.896116309090372,-1.346653601464152
4.384384384384385,2.8366182199009153,-0.6386922821481912
4.444444444444445,2.817790718426425,-0.009720482830164912
4.504504504504505,2.8322416776878634,0.4587807643094217
4.564564564564565,2.8686436022689366,0.7181885697548233
4.624624624624625,2.914482362034602,0.7774012765082916
4.684684684684685,2.9594231370065573,0.7035726703478715
4.744744744744745,2.9978908782850664,0.5734997904271065
4.804804804804805,3.0282758595940957,0.44038797119499185
4.864864864864865,3.0512543254292757,0.3294080660161497
4.924924924924925,3.068499568194624,0.25103858031924187
4.984984984984985,3.082086414478254,0.2078160793373744
5.045045045045045,3.0941462865297,0.20033885208127383
5.105105105105105,3.1068754598337596,0.22953488624023835
5.165165165165165,3.122517411767708,0.2969954230213138
5.225225225225225,3.1433138896116084,0.40441605215134047
5.285285285285285,3.1719114369359622,0.5555597694925997
5.345345345345345,3.2109519515848577,0.7464715710074172
5.405405405405405,3.2620042695808635,0.9532013006414256
5.465465465465465,3.324743181669819,1.1198097018911315
5.525525525525525,3.392862307332875,1.1199745955161318
5.585585585585585,3.45409468837294,0.8649064566421695
5.645645645645645,3.4924170373102204,0.35592732404992156
5.7057057057057055,3.492912682666396,-0.37661724326342905
5.7657657657657655,3.442248402837731,-1.303912996193457
5.8258258258258255,3.3369548441055015,-2.164750586851128
5.885885885885886,3.1885358537987423,-2.7006413234730062
5.945945945945946,3.025090230691902,-2.674824851720735
6.006006006006006,2.87840285641627,-2.1112726503774204
6.066066066066066,2.774578774899152,-1.3356040928455029
6.126126126126126,2.7172129530302747,-0.583710857066003
6.186186186186186,2.702538121003976,0.06427515354951652
6.246246246246246,2.7225229056728812,0.5764770505455488
6.306306306306306,2.768393840304189,0.9232342512308694
6.366366366366366,2.8298854325898595,1.0935807003551372
6.426426426426427,2.896828429076246,1.1175227205935117
6.486486486486487,2.962485040691049,1.0588387913295894
6.546546546546547,3.0235553063171445,0.9739329334003763
6.606606606606607,3.0797192951810923,0.8999327975150284
6.666666666666667,3.132182964414083,0.851367582873428
6.726726726726727,3.18262346813256,0.8339784298289799
6.786786786786787,3.2328035984064845,0.8456475698941159
6.846846846846847,3.284535945959822,0.8818643058393247
6.906906906906907,3.3391985407696234,0.9319060795165784
6.966966966966967,3.396518201248578,0.9695421281622022
7.027027027027027,3.454539470255693,0.9528975105137492
7.087087087087087,3.5088046827257746,0.8332740709420615
7.147147147147147,3.551756575192819,0.5724980928406322
7.207207207207207,3.5746451007335076,0.1640136770064784
7.267267267267267,3.5688646771482113,-0.3793132449858455
7.327327327327327,3.5267411384673855,-1.0358190669257992
7.387387387387387,3.4432467621989207,-1.7491320560054309
7.4474474474474475,3.3184011353281155,-2.369397615556351
7.5075075075075075,3.165813182633079,-2.626522348656824
7.5675675675675675,3.0158702678543308,-2.2728919720302705
7.627627627627628,2.9011018958569705,-1.507755372799245
7.687687687687688,2.835888939016818,-0.6643659242718384
7.747747747747748,2.819956423715585,0.11273625240593296
7.807807807807808,2.8460256168959632,0.7189848383165024
7.867867867867868,2.900586819910724,1.0447926389784377
7.927927927927928,2.9654850616112305,1.0693467098398983
7.987987987987988,3.025128762373668,0.8947833356187869
8.048048048048049,3.0716853582472217,0.6534267570527117
8.108108108108109,3.1039269012623487,0.42510560039587336
8.168168168168169,3.1235969764189084,0.23809988294113063
8.228228228228229,3.133462254253398,0.09821901357217727
8.288288288288289,3.136282009779056,0.003260873005620696
8.348348348348349,3.134681767957873,-0.049622247533169295
8.408408408408409,3.131137614959019,-0.06223080609776155
8.468468468468469,3.128003406512324,-0.03526706732772563
8.528528528528529,3.127700863681936,0.03259259843707407
8.588588588588589,3.132790034690062,0.14403713746498786
8.64864864864865,3.145945448378584,0.3020778896358287
8.70870870870871,3.169733597064822,0.5061955855204844
8.76876876876877,3.2077772244262515,0.7582087572737247
8.82882882882883,3.2612723050871386,1.0140518094277542
8.88888888888889,3.3276699716361957,1.1712912100727253
8.94894894894895,3.3968788431136865,1.0824902242994991
9.00900900900901,3.4510809483475287,0.6683570694788588
9.06906906906907,3.471870566825995,-0.011067076928795161
9.12912912912913,3.4469455504883935,-0.8362224263065506
9.18918918918919,3.3705392337568156,-1.7050903958533508
9.24924924924925,3.244481145662015,-2.4428607504832875
9.30930930930931,3.0863970989493668,-2.719927846852762
9.36936936936937,2.9305797080463547,-2.3770230889341724
9.42942942942943,2.807374421088522,-1.6986561738079122
9.48948948948949,2.7271095956213447,-0.9832420973877035
9.54954954954955,2.687689624910794,-0.3451560607530464
9.60960960960961,2.6834519187596673,0.18375703658424974
9.66966966966967,2.7072721276160596,0.5881816328440278
9.72972972972973,2.751216522496045,0.8552856815646296
9.78978978978979,2.8074090243767893,0.9919437363688238
9.84984984984985,2.868496335995631,1.0281599750211097
9.90990990990991,2.9298652914832375,1.0093218997340516
9.96996996996997,2.9894575721124204,0.9742521941711286
10.03003003003003,3.0470787524188383,0.9487251415155349
10.09009009009009,3.1038008883263086,0.9466528459588293
10.15015015015015,3.1614193100969246,0.9749095171014768
10.21021021021021,3.2216143493928295,1.0322193270189557
10.27027027027027,3.285821902633117,1.108881725002962
10.33033033033033,3.3550026579276255,1.1857691151123242
10.39039039039039,3.4270472837196255,1.2026347611895611
10.45045045045045,3.496726339518431,1.101537744238162
10.51051051051051,3.556122049781176,0.8445081682042841
10.57057057057057,3.594956894997775,0.41803912613406374
10.63063063063063,3.603565829380095,-0.15556912137963463
10.69069069069069,3.573698340997493,-0.8535910686884209
10.75075075075075,3.4994433533659204,-1.632184082692214
10.81081081081081,3.3772310987154035,-2.4181442279876135
10.87087087087087,3.214009762884708,-2.935985387948975
10.93093093093093,3.038691175241621,-2.782029796033628
10.99099099099099,2.891426966645299,-2.0634486049040497
11.05105105105105,2.7936596023788502,-1.188127463857265
11.11111111111111,2.7477825409130756,-0.3518238785643061
11.17117117117117,2.7492679698089515,0.3779582590536914
11.23123123123123,2.7898217909282996,0.9362565924852282
11.29129129129129,2.8568020527964624,1.247214847274239
11.35135135135135,2.9341667431587957,1.29196724919859
11.411411411411411,3.0084604210134724,1.1603693194261093
11.471471471471471,3.072570121160414,0.9721403866525954
11.531531531531531,3.125479871508331,0.794477976205366
11.591591591591591,3.168724765196533,0.6536379467308576
11.651651651651651,3.2047226100619386,0.5535941605764267
11.711711711711711,3.2359376159653075,0.4916728441792271
11.771771771771771,3.2645319841351457,0.4639108662896723
11.831831831831831,3.292343891420763,0.4652790398419254
11.891891891891891,3.320766572723663,0.48862718449291653
11.951951951951951,3.351195239007857,0.5264797337030915
12.012012012012011,3.384196590425802,0.5645387384850769
12.072072072072071,3.418712320161952,0.5760933910943296
12.132132132132131,3.4520507492928343,0.5221009836030678
12.192192192192191,3.4791995461095024,0.3611800270257567
12.252252252252251,3.4927385242914166,0.06662764911912902
12.312312312312311,3.4845473578581294,-0.36167350500896284
12.372372372372372,3.4471427588182726,-0.895401129238665
12.432432432432432,3.3765099836237984,-1.459108679242593
12.492492492492492,3.2743192836305672,-1.904257142493047
12.552552552552552,3.154023619365971,-2.024419002772882
12.612612612612612,3.039867012662608,-1.7116762601757043
12.672672672672672,2.954234958729012,-1.1106974873025903
12.732732732732732,2.9076545259565147,-0.4437462667471519
12.792792792792792,2.899020007054771,0.12852480235126246
12.852852852852854,2.918892956867911,0.4919215655854158
12.912912912912914,2.9530003790691963,0.603064429569774
12.972972972972974,2.987323475974517,0.5144367969602687
13.033033033033034,3.012873460738489,0.3279313521704419
13.093093093093094,3.0264075877222214,0.12469094925089869
13.153153153153154,3.02839993477665,-0.052125740452729025
13.213213213213214,3.020992803249719,-0.18887501330240936
13.273273273273274,3.006638931187054,-0.2827252175630796
13.333333333333334,2.9878573365159684,-0.3340122278456212
13.393393393393394,2.9672190985652116,-0.34611654977162776
13.453453453453454,2.946981355339512,-0.3228548082050328
13.513513513513514,2.929105184275406,-0.2664585365854593
13.573573573573574,2.915597769579871,-0.17707985571537996
13.633633633633634,2.908514615850417,-0.052558453073366186
13.693693693693694,2.9100197636690224,0.1129296470591814
13.753753753753754,2.92296043336935,0.3305275531844709
13.813813813813814,2.95103541997403,0.6151347268731351
13.873873873873874,2.998764873283322,0.9852107729113793
13.933933933933934,3.0714710494861883,1.4527722008246995
13.993993993993994,3.174168494035183,1.9504986678193883
14.054054054054054,3.3004536441147883,2.173581887458301
14.114114114114114,3.4223198527621133,1.7786045074423282
14.174174174174174,3.505399284537538,0.9491232836836012
14.234234234234235,3.5344917068142623,0.017328299016513588
14.294294294294295,3.507692950048927,-0.9091712575603961
14.354354354354355,3.4251636253092004,-1.8391572816504684
14.414414414414415,3.2865709757291035,-2.753343774934795
14.474474474474475,3.1010568193026575,-3.361579941249641
14.534534534534535,2.89582170806242,-3.365019692721818
14.594594594594595,2.7065241232286343,-2.8978413935096983
14.654654654654655,2.548963439430507,-2.3499137425609797
14.714714714714715,2.4218214960905633,-1.902737094704881
14.774774774774775,2.317621850368956,-1.5869521774807964
14.834834834834835,2.2293013536617825,-1.3680505190378234
14.894894894894895,2.1518025146269966,-1.2245730519824096
14.954954954954955,2.081028314776289,-1.1413162548380025
15.015015015015015,2.013723119670544,-1.1085044398287045
15.075075075075075,1.9470029333655776,-1.1213376804487105
15.135135135135135,1.8781783597270658,-1.1769165143107536
15.195195195195195,1.8047478438916156,-1.2737390325904387
15.255255255255255,1.7246192494615857,-1.4082471865499828
15.315315315315315,1.6349895010220508,-1.5814290705237397
15.375375375375375,1.5336643789317523,-1.7816577115551202
15.435435435435435,1.4209843260079515,-1.9630727998592916
15.495495495495495,1.2999756025475813,-2.0469794427862853
15.555555555555555,1.178929017501311,-1.9502580068971977
15.615615615615615,1.070180253974904,-1.6330293094509443
15.675675675675675,0.9864223243778469,-1.12606633914981
15.735735735735735,0.9378936029645898,-0.4707222709443557
15.795795795795796,0.9317212156245387,0.2765267763216054
15.855855855855856,0.9711258320032031,1.0149701638978392
15.915915915915916,1.0479941535285235,1.4600339420214972
15.975975975975976,1.133318317434992,1.2677378609747454
16.036036036036037,1.1899995573555644,0.5680789260932525
16.096096096096097,1.1988869429279507,-0.27359455246060427
16.156156156156158,1.1581745788182392,-1.0668840545543232
16.216216216216218,1.0733966810743507,-1.7262896720534597
16.276276276276278,0.9553167452416899,-2.161971817865183
16.336336336336338,0.8199675439081507,-2.291518310716943
16.396396396396398,0.6853421052517131,-2.1564010029217755
16.456456456456458,0.5634252995265832,-1.8913921283026962
16.516516516516518,0.4583656464057074,-1.610989717111057
16.576576576576578,0.36907936208047365,-1.370221496338349
16.636636636636638,0.29274676067601446,-1.1797341490239739
16.696696696696698,0.22635146868770115,-1.0398662203039315
16.756756756756758,0.16687012119967387,-0.9456102911726579
16.816816816816818,0.11180065731923339,-0.8932069449894398
16.876876876876878,0.0587676276661821,-0.8811282051560724
16.936936936936938,0.005264597284025951,-0.9101813391278882
16.996996996996998,-0.05134346294840767,-0.9835268726968418
17.057057057057058,-0.11378246386720697,-1.1084366426813252
17.117117117117118,-0.18554732011042,-1.2973032635211261
17.177177177177178,-0.27113896223264966,-1.5665103786900536
17.237237237237238,-0.3759853325031117,-1.9366455738325703
17.2972972972973,-0.5063545495702004,-2.4261888574559363
17.35735735735736,-0.6695673471548604,-3.0028215522830726
17.41741741741742,-0.8644159206465789,-3.4294013566101356
17.47747747747748,-1.0682233972395536,-3.240838948672572
17.53753753753754,-1.2418364562345308,-2.4770854092108796
17.5975975975976,-1.3628479530377555,-1.5442659423399576
17.65765765765766,-1.4273725264196704,-0.606733473993307
17.71771771771772,-1.4356744929837397,0.327592621937552
17.77777777777778,-1.3884424603903935,1.235208270022882
17.83783783783784,-1.2913861198341812,1.9343343827817758
17.8978978978979,-1.1673928173465435,2.08810196807908
17.95795795795796,-1.0508370368920859,1.7408183242708535
18.01801801801802,-0.9608621085415247,1.2539353945708867
18.07807807807808,-0.898643787610556,0.834395684504003
18.13813813813814,-0.8587837869973384,0.5072621350345168
18.1981981981982,-0.8361356652330765,0.2584184994711374
18.25825825825826,-0.8265760664254522,0.06918168460286661
18.31831831831832,-0.8269334378342061,-0.07365436467064618
18.37837837837838,-0.8346463443142585,-0.17847770409823183
18.43843843843844,-0.8476578287377753,-0.24930412339817037
18.4984984984985,-0.863951210976072,-0.28735615723872665
18.55855855855856,-0.8815070845781988,-0.291734854661408
18.61861861861862,-0.8982614691472417,-0.2603915777556781
18.67867867867868,-0.9120501581672326,-0.1906221525682491
18.73873873873874,-0.9203393683847068,-0.07931670496381682
18.7987987987988,-0.9207397927430789,0.07100425195568766
18.85885885885886,-0.9113121726017481,0.24917716536227932
18.91891891891892,-0.8909115444172669,0.42481207081223904
18.97897897897898,-0.8613951494816511,0.5371530741881589
19.03903903903904,-0.8294235089681208,0.4932383809557325
19.0990990990991,-0.8068254055244413,0.21957449622121483
19.15915915915916,-0.8074571457820047,-0.2726785819590552
19.21921921921922,-0.8421933169536036,-0.896082454361063
19.27927927927928,-0.9149460380094574,-1.5098949168674298
19.33933933933934,-1.0192113164152599,-1.9123738686913994
19.3993993993994,-1.1368626985087071,-1.927077794573193
19.45945945945946,-1.243329808064547,-1.569653723931837
19.51951951951952,-1.32167131605137,-1.0263493505109025
19.57957957957958,-1.3667970977763848,-0.48404528230983634
19.63963963963964,-1.3816431868899346,-0.03179698113411729
19.6996996996997,-1.3732752488901196,0.28740458926465906
19.75975975975976,-1.3499455580172115,0.46675724496683657
19.81981981981982,-1.3195123600379635,0.5301410851329795
19.87987987987988,-1.2877146138421238,0.519828351887256
19.93993993993994,-1.2577318592507951,0.47601298654263224
20.0,-1.230615628294643,0.4277606512224724
20.06006006006006,-1.2060808203546796,0.3921357583130507
20.12012012012012,-1.183063866990734,0.3789881955613727
20.18018018018018,-1.160033086073305,0.3938306785837141
20.24024024024024,-1.1351411506541171,0.44113389541306197
20.3003003003003,-1.1062968421108137,0.5251304227538747
20.36036036036036,-1.071198033909629,0.6499665314653984
20.42042042042042,-1.027478235295488,0.8168557815741091
20.48048048048048,-0.9722727551909737,1.0220392004992087
20.54054054054054,-0.9045026347879264,1.226346292106633
20.6006006006006,-0.8268062582172182,1.335923268239221
20.66066066066066,-0.7487588103769535,1.218036182373152
20.72072072072072,-0.6864597144118325,0.8071533287025218
20.78078078078078,-0.6564497403109083,0.159742787418504
20.84084084084084,-0.6702861130236082,-0.6382371373906213
20.9009009009009,-0.7342264844297317,-1.5079541667122456
20.96096096096096,-0.851844435512614,-2.3796969308893248
21.02102102102102,-1.014393438771588,-2.9481264669019245
21.08108108108108,-1.1916495483658198,-2.833271837816288
21.14114114114114,-1.3435820113279806,-2.1720496693111104
