time[s],theta[rad],thetap[rad/s]
0.0,0.0,0.0
0.001000100010001,2.4398783141772256e-06,0.007326109622671484
0.002000200020002,1.975193529695346e-05,0.02950997808263587
0.003000300030003,6.688650792425354e-05,0.06721281576888453
0.004000400040004,0.00015972881124953872,0.12158548885958068
0.005000500050005001,0.00031592636052396274,0.19424430228363443
0.006000600060006,0.0005549751634729488,0.287289695861794
0.0070007000700070005,0.0008985672230268429,0.40347814214032246
0.008000800080008,0.0013709555048554776,0.5462364856052421
0.009000900090009001,0.002001047636952249,0.7198587569004844
0.010001000100010001,0.0028226498401360354,0.9295402732970599
0.011001100110011002,0.0038746853302534467,1.1814173019329248
0.012001200120012,0.005203246023511271,1.48299466511111
0.013001300130013,0.006860461524522978,1.8429505076875352
0.014001400140014001,0.008910446446986254,2.272055902229514
0.015001500150015001,0.011430551278359622,2.7833841832356656
0.016001600160016,0.014511362379862437,3.3923109471359165
0.017001700170017002,0.01825713793754985,4.116597204096377
0.018001800180018002,0.02279648157245053,4.978381195679359
0.019001900190019003,0.028270843005099106,6.0018635188677205
0.020002000200020003,0.03485544725844267,7.217335188802107
0.021002100210021003,0.04276802825260148,8.662856327570676
0.022002200220022004,0.05226882880486906,10.384256164209091
0.023002300230023004,0.06366060062971204,12.43513303470052
0.024002400240024,0.07729231622434476,14.877771628010809
0.025002500250025,0.09365359643420397,17.80421831348632
0.026002600260026,0.11317719290426245,21.285700814822622
0.027002700270027002,0.1364197516411913,25.425650824375182
0.028002800280028002,0.16415908762981307,30.385115370379957
0.029002900290029002,0.1973941848331021,36.382756816953396
0.030003000300030003,0.23734519619218425,43.694852864092425
0.031003100310031003,0.28545344362633707,52.65529654767445
0.032003200320032,0.3434333175760628,63.6774958026761
0.033003300330033,0.41373363739880425,77.47320834608279
0.034003400340034004,0.4996123595990194,94.90537959712009
0.035003500350035,0.6050877794805697,116.80330345608651
0.036003600360036005,0.7346940304533396,142.84391630173232
0.037003700370037,0.8905957652366006,167.44222978538988
0.038003800380038005,1.0638946251907624,175.09760932838782
0.039003900390039,1.2321485382991284,158.4470102134487
0.040004000400040006,1.3774234973603237,131.46726430008806
0.041004100410041,1.4962940085566754,106.93200210847499
0.04200420042004201,1.5928933557705849,87.05101844418424
0.043004300430043,1.6718862703099853,71.2817915411971
0.04400440044004401,1.7368004143999785,58.73694019440117
0.045004500450045004,1.790316221890625,48.739057709746184
0.04600460046004601,1.834711826316066,40.66919148207916
0.047004700470047005,1.8718578516983115,33.9718934138803
0.048004800480048,1.9029855920763488,28.36635356279443
0.049004900490049005,1.9289773011153744,23.70702968423971
0.05000500050005,1.9506622282970985,19.825564043325272
0.051005100510051006,1.9687724818574415,16.575826642597818
0.052005200520052,1.9839376885256732,13.835469324219812
0.05300530053005301,1.996614347683791,11.521981967571769
0.054005400540054004,2.007150357121746,9.572608406428472
0.05500550055005501,2.015864688460456,7.929175964348483
0.056005600560056004,2.0230484735483127,6.538394588355105
0.05700570057005701,2.0289644390926473,5.351959025879938
0.058005800580058005,2.0338056294453866,4.333895734204111
0.05900590059005901,2.0377016273197768,3.458967478105606
0.060006000600060005,2.0407725031706994,2.702825184482893
0.06100610061006101,2.0431263175353167,2.0424773591851086
0.062006200620062006,2.0448591210330727,1.4562900870120998
0.063006300630063,2.046046689310521,0.9252748283297099
0.064006400640064,2.046726782124689,0.43582046639613137
0.06500650065006501,2.046930067553496,-0.0258038707480146
0.066006600660066,2.046677306625299,-0.4733580790636347
0.067006700670067,2.0459789141537974,-0.9205675823349937
0.06800680068006801,2.044830426598796,-1.3808092333698736
0.06900690069006901,2.0432101197965165,-1.8669822602549075
0.07000700070007,2.0410836839882056,-2.3932203848744753
0.071007100710071,2.0384030677586713,-2.975207639622242
0.07200720072007201,2.0351060486736365,-3.6302636236945593
0.07300730073007301,2.031110488811927,-4.377848441096786
0.074007400740074,2.0263155021776265,-5.238755885328038
0.075007500750075,2.020592887498909,-6.238189091347968
0.07600760076007601,2.013784955393087,-7.406367421604356
0.07700770077007701,2.0057045283666106,-8.778526466033146
0.078007800780078,1.9961343810118741,-10.395042249770308
0.07900790079007901,1.9847892357465295,-12.308747762221532
0.08000800080008001,1.971375807747874,-14.569538825994158
0.081008100810081,1.9555335160225522,-17.24094558388753
0.082008200820082,1.936789923964634,-20.410783445880526
0.08300830083008301,1.9145607393556179,-24.19115308913134
0.08400840084008401,1.8881498143644275,-28.718440457977636
0.085008500850085,1.8567491455474148,-34.15331676393641
0.086008600860086,1.8194045889792778,-40.69585862205571
0.08700870087008701,1.7748726074377144,-48.64037238722881
0.08800880088008801,1.721633401111617,-58.333454679584946
0.089008900890089,1.657591000550409,-70.29068080633472
0.09000900090009001,1.580042432439056,-85.20988271117807
0.09100910091009101,1.4856777195980702,-103.97114897430323
0.09200920092009202,1.3705774455295774,-126.95027380996845
0.093009300930093,1.230212664377,-152.75060175858957
0.09400940094009401,1.0666928314527286,-172.78219236149152
0.09500950095009501,0.8930463401685951,-170.56754367806292
0.096009600960096,0.7324663083982397,-148.55434644973664
0.09700970097009701,0.5971816405665997,-122.13583670211236
0.09800980098009801,0.48661664215166567,-99.69947951083557
0.09900990099009901,0.39623654515420825,-81.78143080310176
0.1000100010001,0.32173151615629364,-67.58407344061355
0.10101010101010101,0.259920021180278,-56.28473102228348
0.10201020102010201,0.2083532835362533,-47.267429489115344
0.10301030103010302,0.16496363306312922,-39.99195387915377
0.104010401040104,0.12808009456930075,-34.00809323392342
0.10501050105010501,0.09657357345604123,-29.09966612827707
0.10601060106010601,0.06953109655831329,-25.10875067619096
0.10701070107010702,0.04611779846045261,-21.88674627651823
0.10801080108010801,0.02559133361236106,-19.310220463290904
0.10901090109010901,0.007321798362569087,-17.2867305185784
0.11001100110011001,-0.009178582978939191,-15.75937999212739
0.11101110111011102,-0.02436122687697196,-14.683045060620767
0.11201120112011201,-0.03866394096165114,-14.022533207588705
0.11301130113011301,-0.052510855673242166,-13.752624501072773
0.11401140114011402,-0.0662958221841611,-13.863162182757018
0.115011501150115,-0.08038023409794427,-14.359663521641293
0.11601160116011601,-0.09515138396188857,-15.257506159624727
0.11701170117011701,-0.11102945613805798,-16.583039206148165
0.11801180118011802,-0.12847127076700843,-18.37432150606403
0.11901190119011901,-0.14799002895389546,-20.687653122671
0.12001200120012001,-0.17008785126848522,-23.588018865553806
0.12101210121012101,-0.1953860855795853,-27.170362125902322
0.12201220122012202,-0.22465499326900346,-31.564771708451794
0.12301230123012301,-0.2588137492315468,-36.93648183148276
0.12401240124012401,-0.2989304924611905,-43.48589478413235
0.125012501250125,-0.3463002100924326,-51.49061764658185
0.126012601260126,-0.40251903946032364,-61.3327176877726
0.127012701270127,-0.4697076981339007,-73.53396382608773
0.128012801280128,-0.5506238714117914,-88.79368818298204
0.12901290129012902,-0.6485775492941024,-107.87435802750296
0.13001300130013002,-0.76781342660167,-131.20266169570633
0.13101310131013102,-0.9121160842735562,-156.58710266033447
0.132013201320132,-1.0779395626483552,-172.43048280607994
0.133013301330133,-1.2489174407814816,-166.1027664258378
0.134013401340134,-1.404467015056768,-142.98174765687432
0.135013501350135,-1.5347985846697727,-118.02505818516272
0.13601360136013602,-1.641834247715224,-96.78028991429149
0.13701370137013702,-1.7299230676005097,-79.8436250764588
0.13801380138013802,-1.8029959735591472,-66.41512610052672
0.13901390139013903,-1.8639475600921454,-55.84371427059882
0.14001400140014,-1.9152843603618015,-47.505786721858435
0.141014101410141,-1.9591340173557983,-40.80659793441033
0.142014201420142,-1.9971097266004199,-35.29995621406339
0.14301430143014301,-2.0301676838759097,-30.895503674098777
0.14401440144014402,-2.059262236930608,-27.440839567248844
0.14501450145014502,-2.0852799281881147,-24.802931237797342
0.14601460146014603,-2.109032201377083,-22.874393309830964
0.147014701470147,-2.1312347616370246,-21.581581502237416
0.148014801480148,-2.1524568279851715,-20.891784171074022
0.149014901490149,-2.1732527282400196,-20.786890926805604
0.15001500150015,-2.1942037156405285,-21.262564480916634
0.15101510151015102,-2.2159179789995007,-22.32826108027215
0.15201520152015202,-2.239034892452714,-24.00895343186394
0.15301530153015303,-2.2642123185942475,-26.359496931087453
0.15401540154015403,-2.292072588702616,-29.447862240229586
0.155015501550155,-2.3233867535335797,-33.380076263800134
0.156015601560156,-2.3591025487186057,-38.306414391954014
0.157015701570157,-2.400344394764864,-44.42140050049062
0.15801580158015802,-2.448414860727476,-51.964731833154225
0.15901590159015902,-2.5048779989822147,-61.28255315596168
0.16001600160016002,-2.5717323962808694,-72.87156876322888
0.16101610161016103,-2.6515922174842155,-87.36393177596554
0.162016201620162,-2.74769956677242,-105.5081986023719
0.163016301630163,-2.8639033662958115,-127.67000340660024
0.164016401640164,-3.004133679954644,-152.21462981450273
0.16501650165016502,-3.166080593688245,-169.40200933269017
0.16601660166016602,-3.3356918634252155,-166.5091675200664
0.16701670167016702,-3.493011991348788,-145.69551101956213
0.16801680168016803,-3.6264046851017184,-121.26516460395453
0.16901690169016903,-3.736657493677878,-99.89272459134742
0.17001700170017,-3.827718443545873,-82.7653591727607
0.171017101710171,-3.9036121670156736,-69.17531239981659
0.172017201720172,-3.9672812674006375,-58.489852852152204
0.17301730173017302,-4.021269523019379,-50.1046481288146
0.17401740174017402,-4.067744546941883,-43.447216184794655
0.17501750175017503,-4.10840734115059,-38.06024207211924
0.17601760176017603,-4.1443119359307925,-33.83234493516371
0.177017701770177,-4.176464290028945,-30.62055958710176
0.178017801780178,-4.205815818151505,-28.29936659643569
0.179017901790179,-4.233252479107108,-26.770849593563455
0.18001800180018002,-4.259587086917352,-25.970276306407712
0.18101810181018102,-4.285495555202079,-25.876984568473226
0.18201820182018202,-4.311631121659131,-26.490429413162794
0.18301830183018303,-4.3387043756694235,-27.829704310021132
0.18401840184018403,-4.36748398409007,-29.933740963435508
0.185018501850185,-4.398797980794411,-32.86171555797247
0.186018601860186,-4.433611526048404,-36.72782268801502
0.18701870187018702,-4.472768232469106,-41.63996065800487
0.18801880188018802,-4.51730703364592,-47.76731618995784
0.18901890189018902,-4.568641151903716,-55.389202599996
0.19001900190019003,-4.628558098302826,-64.89505979834763
0.19101910191019103,-4.699219672639049,-76.78445428934728
0.192019201920192,-4.78303436959254,-91.5513012285535
0.193019301930193,-4.883422411463613,-110.09797568916579
0.19401940194019401,-5.005044348628477,-132.89161161611742
0.19501950195019502,-5.149537707786957,-155.7157691904864
0.19601960196019602,-5.313075510852144,-168.61243793494333
0.19701970197019703,-5.479589373320662,-161.65157585096006
0.19801980198019803,-5.631426167967481,-139.8832281345367
0.19901990199019903,-5.759536415479405,-116.63022039681344
0.2000200020002,-5.8658967961932795,-96.7261919144851
0.201020102010201,-5.954434875164861,-80.87449235713514
0.20202020202020202,-6.0289675276053005,-68.32018834792899
0.20302030203020302,-6.092232413357249,-58.48985175732822
0.20402040204020402,-6.146618228002562,-50.846394851287215
0.20502050205020503,-6.194187898072891,-44.89395177743041
0.20602060206020603,-6.236632294359268,-40.21782132089323
0.20702070207020704,-6.275051150872987,-36.703172569957864
0.208020802080208,-6.310455174997572,-34.242591737804716
0.20902090209020902,-6.34383816940597,-32.73913300076099
0.21002100210021002,-6.376158101355328,-32.12415716922702
0.21102110211021102,-6.408342987593365,-32.36007241727506
0.21202120212021203,-6.441242238526449,-33.45288485174154
0.21302130213021303,-6.475637401256419,-35.43528615285246
0.21402140214021403,-6.512432612644932,-38.37599883224135
0.215021502150215,-6.552668242759527,-42.38165641623321
0.21602160216021601,-6.597520894873633,-47.59680344584505
0.21702170217021702,-6.64830562734111,-54.21467739383028
0.21802180218021802,-6.706520754160654,-62.53936090633956
0.21902190219021903,-6.774063273501913,-72.97525966504995
0.22002200220022003,-6.853347759199551,-86.04484424730418
0.22102210221022103,-6.9473095850797275,-102.39136833132352
0.22202220222022204,-7.059238453298692,-122.26402941017044
0.223022302230223,-7.193082953766448,-144.83097551830247
0.22402240224022402,-7.347846634495442,-163.4196224746109
0.22502250225022502,-7.513843839372562,-165.31855063728915
0.22602260226022602,-7.672290798463992,-149.3674673841412
0.22702270227022703,-7.810376943096052,-126.38616364655645
0.22802280228022803,-7.926028520630132,-105.41826436149347
0.22902290229022904,-8.022541443865066,-88.27080183672018
0.23002300230023,-8.103852627233634,-74.67151262887029
0.23102310231023102,-8.173098204108701,-63.96590935757305
0.23202320232023202,-8.23272258697008,-55.64002670980731
0.23302330233023302,-8.284875400584607,-49.2275235782583
0.23402340234023403,-8.331412474259254,-44.310245151152394
0.23502350235023503,-8.373798578462672,-40.60155020564484
0.23602360236023603,-8.413064887105485,-38.028927101408655
0.23702370237023704,-8.450242980803706,-36.49780410416448
0.23802380238023801,-8.486347777718256,-35.94162157908124
0.23902390239023902,-8.522375839407097,-36.32337632845683
0.24002400240024002,-8.559331951450194,-37.64427601266712
0.24102410241024103,-8.598121027916713,-39.94207764305292
0.24202420242024203,-8.639653605802089,-43.28735459970969
0.24302430243024303,-8.685042773898273,-47.80746700643984
0.24402440244024404,-8.735606425584733,-53.686940412594424
0.245024502450245,-8.792867258828435,-61.16746579307281
0.24602460246024602,-8.858532820511117,-70.55552610009752
0.24702470247024702,-8.93476700063292,-82.38484520818207
0.24802480248024802,-9.024346322829123,-97.21869265835191
0.24902490249024903,-9.130409348934228,-115.4264502922027
0.25002500250025,-9.256397935258759,-136.68738236900367
0.251025102510251,-9.403320122824224,-155.93558763824825
0.252025202520252,-9.564612150240439,-164.34351739135454
0.253025302530253,-9.725041069951288,-154.2522412453411
0.254025402540254,-9.86927847153044,-133.26807100051587
0.255025502550255,-9.991509891115363,-110.88372782251312
0.256025602560256,-10.092993412100627,-92.7194720957208
0.25702570257025703,-10.178211018324394,-78.23333859309759
0.25802580258025803,-10.250476336858242,-66.76091547616106
0.25902590259025904,-10.312601365967593,-57.65888557616419
0.26002600260026004,-10.366665086986472,-50.47307911557353
0.26102610261026105,-10.414264693425027,-44.90692580319812
0.26202620262026205,-10.456866268211392,-40.70299662310295
0.26302630263026305,-10.495807664270814,-37.642337089590455
0.264026402640264,-10.532290457791666,-35.5489015636685
0.265026502650265,-10.567220649533398,-34.363489939235066
0.266026602660266,-10.601391820247056,-34.062182663580934
0.267026702670267,-10.635652867508389,-34.631108540278966
0.268026802680268,-10.670895092400542,-36.080282808744194
0.269026902690269,-10.708052199514064,-38.443607144233845
0.27002700270027,-10.748137375832385,-41.79765979072532
0.27102710271027103,-10.792137699569919,-46.251166191846565
0.27202720272027203,-10.841097048424357,-51.93417244432531
0.27302730273027304,-10.89638555681402,-59.07284342097421
0.27402740274027404,-10.959704951913839,-67.99129009359814
0.27502750275027504,-11.033088553655368,-79.1115695329942
0.27602760276027605,-11.118869228035754,-92.92078481921706
0.27702770277027705,-11.219861636237063,-109.84450954177632
0.27802780278027805,-11.339865349268278,-130.00421366100645
0.279027902790279,-11.479931805679767,-149.6531931273238
0.28002800280028,-11.636149143537553,-160.46469837062173
0.281028102810281,-11.794950990665829,-154.84524836883344
0.282028202820282,-11.94156025701883,-136.4085545043224
0.283028302830283,-12.06756122936276,-115.73776105844219
0.284028402840284,-12.173916041694826,-97.42676156893279
0.285028502850285,-12.263671443610754,-82.60410292164555
0.28602860286028603,-12.34036753306966,-70.7497253204543
0.28702870287028703,-12.4064575457876,-61.43299721652596
0.28802880288028804,-12.4641032078553,-54.24619889670573
0.28902890289028904,-12.51526158199634,-48.800713199345246
0.29002900290029004,-12.561685067567135,-44.72702551430272
0.29102910291029105,-12.604825790826823,-41.737127124122715
0.29202920292029205,-12.645570165488627,-39.820043309716574
0.29302930293029306,-12.684872828880017,-38.919706568728245
0.294029402940294,-12.723720104138774,-38.99479202860701
0.295029502950295,-12.76311133528898,-40.03142439802853
0.296029602960296,-12.80406537491239,-42.045248572806095
0.297029702970297,-12.847643240669438,-45.104922014808665
0.298029802980298,-12.894787618583106,-49.28869246074745
0.299029902990299,-12.94664603838589,-54.73846674936905
0.3000300030003,-13.004646065528709,-61.677465596348384
0.30103010301030103,-13.070495301180909,-70.41022359428865
0.30203020302030203,-13.146181382230262,-81.32258921272134
0.30303030303030304,-13.233335642736082,-94.1435938209904
0.30403040304030404,-13.33580239966971,-110.43576676525329
0.30503050305030505,-13.45717314539019,-130.59902786175397
0.30603060306030605,-13.597490143192184,-150.22191335238125
0.30703070307030705,-13.753113569902414,-160.13060440874725
0.30803080308030806,-13.911090377747152,-153.54988017077432
0.309030903090309,-14.056447513409386,-135.75473957807714
0.31003100310031,-14.182240803811656,-115.98528468882587
0.311031103110311,-14.28937429511083,-98.7389475511375
0.312031203120312,-14.380880749076711,-84.8380628936081
0.313031303130313,-14.460138870690221,-73.88318212363397
0.314031403140314,-14.529724158271598,-65.40151449730982
0.31503150315031503,-14.591767739445707,-59.00874049690283
0.31603160316031603,-14.64819635451867,-54.36580638955125
0.31703170317031704,-14.70073235647787,-51.17892422726456
0.31803180318031804,-14.750853794260168,-49.23435259521994
0.31903190319031904,-14.799675152166705,-48.49438587540832
0.32003200320032005,-14.848299058330424,-48.92549502020379
0.32103210321032105,-14.897893352608596,-50.528483559850734
0.32203220322032206,-14.949687197616866,-53.34410428857771
0.32303230323032306,-15.004971069179138,-57.454750199886014
0.324032403240324,-15.065089502267849,-63.0157698747584
0.325032503250325,-15.131560699153322,-70.25224689575857
0.326032603260326,-15.206233449849186,-79.46487984518046
0.327032703270327,-15.291299386935188,-91.03525167137931
0.328032803280328,-15.38924659661635,-105.37308448380125
0.329032903290329,-15.502919937221892,-122.44722428272277
0.33003300330033003,-15.634996377671484,-141.01137779355696
0.33103310331033103,-15.783661857874787,-155.28670572661815
0.33203320332033204,-15.940668439559575,-156.29073154380882
0.33303330333033304,-16.091505146793036,-143.70462668803168
0.33403340334033405,-16.226083973061005,-124.73854968124986
0.33503350335033505,-16.3416925248943,-106.84192659665598
0.33603360336033605,-16.440784784006006,-91.82584441110923
0.33703370337033706,-16.526432457914346,-79.91400546849161
0.33803380338033806,-16.601636835028533,-70.60204108355924
0.339033903390339,-16.66860778149602,-63.5084996300988
0.34003400340034,-16.72931736782755,-58.300476068878275
0.341034103410341,-16.785555577519112,-54.689288134635675
0.342034203420342,-16.838930307051957,-52.43047633607732
0.343034303430343,-16.890787920483614,-51.3934462775682
