time[s],theta[rad],thetap[rad/s]
0.0,0.0,0.0
0.06006006006006006,-0.0012015055177228581,-0.05974374293231602
0.12012012012012012,-0.009428596491666344,-0.23147657500140628
0.18018018018018017,-0.030834614808991925,-0.49424031409888847
0.24024024024024024,-0.07001015728213544,-0.8175535496319601
0.3003003003003003,-0.12958293137986743,-1.1674255413535215
0.36036036036036034,-0.2101632589320822,-1.5131184907001707
0.42042042042042044,-0.31080654579688827,-1.8368682611006864
0.4804804804804805,-0.43051780889780156,-2.1475435735792128
0.5405405405405406,-0.5691726724122794,-2.4830186104193452
0.6006006006006006,-0.7309717634686332,-2.92079309500095
0.6606606606606606,-0.9226485764690205,-3.4797960662793335
0.7207207207207207,-1.1475006514877995,-3.9219490715114573
0.7807807807807807,-1.3768441857779683,-3.571549583271474
0.8408408408408409,-1.5620991232761583,-2.550301938799551
0.9009009009009009,-1.683685971572346,-1.5220616527195479
0.960960960960961,-1.7509252886468791,-0.763895041972074
1.021021021021021,-1.7802827382621536,-0.24353130305756987
1.0810810810810811,-1.7832838273617733,0.12122316705410507
1.1411411411411412,-1.767249026662678,0.4044831717857881
1.2012012012012012,-1.7350933969952298,0.6655321627200731
1.2612612612612613,-1.6869374927895675,0.9433760585296672
1.3213213213213213,-1.62132574579969,1.2535278774330012
1.3813813813813813,-1.5357441419061908,1.594791277439365
1.4414414414414414,-1.4291403977961517,1.9349759150367332
1.5015015015015014,-1.3049330124951175,2.1860042129004613
1.5615615615615615,-1.1715461969818715,2.212067292138619
1.6216216216216217,-1.045924033895441,1.9165161128615826
1.6816816816816818,-0.9475111806679908,1.3149603681316364
1.7417417417417418,-0.8915224829960232,0.5314747450086355
1.8018018018018018,-0.8834578166859727,-0.2339612695174898
1.8618618618618619,-0.9140147757674036,-0.7188635733600195
1.921921921921922,-0.9611128251615098,-0.7792136052104154
1.981981981981982,-1.0013302837087543,-0.5264869521993434
2.042042042042042,-1.0226481231244224,-0.1836484963388641
2.1021021021021022,-1.024572389313819,0.10293812532448127
2.1621621621621623,-1.0126018877201686,0.27446480443645405
2.2222222222222223,-0.994236147501206,0.3148335713713277
2.2822822822822824,-0.9774473512667574,0.22072768291743003
2.3423423423423424,-0.9703765987865444,-0.009261695046970386
2.4024024024024024,-0.9812701399812804,-0.37159365398734423
2.4624624624624625,-1.0170268673528127,-0.8332782653524031
2.5225225225225225,-1.0810278263577469,-1.2719669746456366
2.5825825825825826,-1.1642421377781598,-1.4228711693456602
2.6426426426426426,-1.2400882288818238,-1.0071710239745535
2.7027027027027026,-1.2760961240786166,-0.14480203845017808
2.7627627627627627,-1.2552397436326077,0.8372675853820443
2.8228228228228227,-1.1777107620100646,1.7133821566307985
2.8828828828828827,-1.0546121718015518,2.3345620915532246
2.942942942942943,-0.9043641060048266,2.6044469619315698
3.003003003003003,-0.748858859803833,2.532169695674016
3.063063063063063,-0.6046089291209897,2.2421454369166165
3.123123123123123,-0.48043220689593774,1.890206769990214
3.183183183183183,-0.3766291613234659,1.5761468568924906
3.2432432432432434,-0.2895197959384686,1.3395735770231632
3.3033033033033035,-0.21382970665141993,1.1942378349301808
3.3633633633633635,-0.14414724903917459,1.1406152169710804
3.4234234234234235,-0.07514180643478788,1.1748171175196758
3.4834834834834836,-0.0014488081280762677,1.2919084496402853
3.5435435435435436,0.08177214717642911,1.4948569031198744
3.6036036036036037,0.18002487703988154,1.7953155552056677
3.6636636636636637,0.2995449206074553,2.210961676300664
3.7237237237237237,0.4483873208953778,2.7603659113292496
3.7837837837837838,0.6332858976102507,3.4061448939046777
3.843843843843844,0.8579495025121362,4.037415092651068
3.903903903903904,1.1118881654590356,4.386916756813269
3.963963963963964,1.3754420135868017,4.3261267255569535
4.024024024024024,1.6267068675163052,4.011419152361996
4.084084084084084,1.8587095251420127,3.7459765563581984
4.1441441441441444,2.082102551234661,3.728869964741951
4.2042042042042045,2.3140346763394044,4.06086959887958
4.2642642642642645,2.576833710958154,4.737003714130742
4.324324324324325,2.884162778727802,5.442442519726086
4.384384384384385,3.215567620575101,5.414328029685972
4.444444444444445,3.5144940109840053,4.44912405377992
4.504504504504505,3.747469910336997,3.333859081137045
4.564564564564565,3.9200496216482397,2.456962285064406
4.624624624624625,4.047902496878228,1.8369577438703881
4.684684684684685,4.145245477980251,1.430380651426363
4.744744744744745,4.223299276509571,1.200748586216976
4.804804804804805,4.292097288896724,1.1185286855374452
4.864864864864865,4.360046077239821,1.1691934436417377
4.924924924924925,4.435233030119919,1.35687424695735
4.984984984984985,4.525913373734902,1.6827792443600433
5.045045045045045,4.63972248472562,2.1344213834027217
5.105105105105105,4.784509204611011,2.6813909496481187
5.165165165165165,4.961538057410566,3.181556405891583
5.225225225225225,5.158919875068346,3.3096646045703895
5.285285285285285,5.3467492464743005,2.851278322464715
5.345345345345345,5.492561272777728,1.9541020186781057
5.405405405405405,5.578553633505159,0.9029308375679908
5.465465465465465,5.602211278566803,-0.09067926199975829
5.525525525525525,5.572238373861015,-0.8599807947692921
5.585585585585585,5.505667153713344,-1.2942256369263783
5.645645645645645,5.423043210763682,-1.4167322672007827
5.7057057057057055,5.338813634801357,-1.3718689122175127
5.7657657657657655,5.258691697659293,-1.2992553198201444
5.8258258258258255,5.181902328178275,-1.2655962125782358
5.885885885885886,5.105751496745845,-1.2748853480819538
5.945945945945946,5.029100014680269,-1.2642453324857899
6.006006006006006,4.956751151638273,-1.1167706293383968
6.066066066066066,4.8998817143986235,-0.7286125106642651
6.126126126126126,4.875173476353068,-0.041681969339269265
6.186186186186186,4.899825676289489,0.8887304699759844
6.246246246246246,4.983774652657743,1.899374275092517
6.306306306306306,5.124771875418509,2.7548218080020135
6.366366366366366,5.305907086041068,3.1811362532454375
6.426426426426427,5.4956493589444095,3.0481379692755466
6.486486486486487,5.66473125096715,2.5444907064284212
6.546546546546547,5.799940317203058,1.9630032276342613
6.606606606606607,5.902377095045378,1.4656916109850109
6.666666666666667,5.978429303458665,1.0878105200900463
6.726726726726727,6.03542323903974,0.8263727814534662
6.786786786786787,6.079761015427058,0.6665758478875563
6.846846846846847,6.117134019339654,0.5919726357106693
6.906906906906907,6.152245428214254,0.5853736941367602
6.966966966966967,6.188461245918536,0.6288299381329358
7.027027027027027,6.228320616313429,0.7025318709060677
7.087087087087087,6.273069844106842,0.7889152904259537
7.147147147147147,6.323113339746951,0.8779026894426801
7.207207207207207,6.378525091969444,0.969946879118018
7.267267267267267,6.4397405770254625,1.078048736516044
7.327327327327327,6.508857246466932,1.2281398735150089
7.387387387387387,6.588738881311586,1.4370752721023514
7.4474474474474475,6.682910675931822,1.710657630112674
7.5075075075075075,6.795351156427095,2.042028007889801
7.5675675675675675,6.928427754967515,2.38034964740259
7.627627627627628,7.079710872443467,2.6330525420238367
7.687687687687688,7.240687061162219,2.690616233847428
7.747747747747748,7.396588529850819,2.4529878075448046
7.807807807807808,7.529262500595122,1.9242202792325638
7.867867867867868,7.623136755403302,1.1620400384213139
7.927927927927928,7.666673598972596,0.2512376748600206
7.987987987987988,7.6498552854129525,-0.8180781206197807
8.048048048048049,7.5680509736906645,-1.8765570434882095
8.108108108108109,7.433893713298478,-2.4661355817745996
8.168168168168169,7.289203182184436,-2.22345544462197
8.228228228228229,7.1753318320855835,-1.5417082570600344
8.288288288288289,7.103452661664219,-0.8739414191951107
8.348348348348349,7.067539968582018,-0.3451199770893679
8.408408408408409,7.059325935500106,0.05143085019688824
8.468468468468469,7.071772954515215,0.34180402828426176
8.528528528528529,7.0986638415759,0.5360823501002112
8.588588588588589,7.134157489471422,0.6356637382816493
8.64864864864865,7.172858343032511,0.637399814792696
8.70870870870871,7.208752511614733,0.5437381680873982
8.76876876876877,7.2368412695318725,0.3878938274465853
8.82882882882883,7.25579258718334,0.25551972666222894
8.88888888888889,7.2702138860399765,0.2546840615727995
8.94894894894895,7.2902137538357605,0.4417284522316126
9.00900900900901,7.325942245389252,0.759297882460315
9.06906906906907,7.3812491763853325,1.0721241158962236
9.12912912912913,7.452326964520123,1.267647939134824
9.18918918918919,7.530266898970583,1.3006042202509014
9.24924924924925,7.605652630465801,1.1887891178912025
9.30930930930931,7.671029824112101,0.9746392480524673
9.36936936936937,7.721504099980558,0.6982025392454336
9.42942942942943,7.75405375766164,0.37762005297359147
9.48948948948949,7.765993528731076,0.008419257623502485
9.54954954954955,7.753609105959911,-0.4437339037024516
9.60960960960961,7.709862165715147,-1.0354933815155016
9.66966966966967,7.62530950912994,-1.809172133423421
9.72972972972973,7.489200975672121,-2.7184244101260826
9.78978978978979,7.306132472719526,-3.2496457246181385
9.84984984984985,7.121187468137956,-2.747557600910745
9.90990990990991,6.987147378768216,-1.6943258658046638
9.96996996996997,6.9151289181193105,-0.7368313238983415
10.03003003003003,6.894396692582614,0.01392060766123221
10.09009009009009,6.913744696684979,0.6067515648645232
10.15015015015015,6.965070569238399,1.0885409179996943
10.21021021021021,7.042350426470208,1.4665343369392483
10.27027027027027,7.138656298057101,1.7149417175947321
10.33033033033033,7.24481995977996,1.7876822737583864
10.39039039039039,7.3490190054846956,1.643606854654967
10.45045045045045,7.4374615455499455,1.2644408643969451
10.51051051051051,7.4967168416529395,0.673165578217503
10.57057057057057,7.515413330251432,-0.09041986503781385
10.63063063063063,7.482898729677742,-0.9781480917656966
10.69069069069069,7.401090396021431,-1.6793514542574037
10.75075075075075,7.294294748487764,-1.7480221870726818
10.81081081081081,7.204799042959723,-1.1531042659060902
10.87087087087087,7.160164912452813,-0.3290874046760734
10.93093093093093,7.1635504834347445,0.4186820771615277
10.99099099099099,7.207048090827309,0.9980169251211315
11.05105105105105,7.279556459848335,1.3826619760035788
11.11111111111111,7.368875811978537,1.557514580986361
11.17117117117117,7.462494035129913,1.524552732791123
11.23123123123123,7.548290825346257,1.3075016328934204
11.29129129129129,7.61634083952601,0.933537737204157
11.35135135135135,7.657718729679629,0.4179412629251289
11.411411411411411,7.664736115515243,-0.22285301599444174
11.471471471471471,7.6268978030262815,-1.057557571296086
11.531531531531531,7.532094151414995,-2.0767306573666113
11.591591591591591,7.383059925959243,-2.808410125042841
11.651651651651651,7.2150828832923475,-2.61676601312612
11.711711711711711,7.083146764792909,-1.7230718482436609
11.771771771771771,7.00846202035513,-0.7865054846938916
11.831831831831831,6.985064217489943,-0.02468102442114639
11.891891891891891,7.0023552307001005,0.5757707636847482
11.951951951951951,7.051392132037988,1.0380845421605258
12.012012012012011,7.124296722785432,1.3650423070057311
12.072072072072071,7.212198049557708,1.533438165885173
12.132132132132131,7.304706653421602,1.5131454232719432
12.192192192192191,7.389776152127809,1.2829902929714505
12.252252252252251,7.454397941440519,0.8360918751213359
12.312312312312311,7.486546862816021,0.2034882465459272
12.372372372372372,7.476130268727766,-0.5702053097615191
12.432432432432432,7.417738333903372,-1.341139793477737
12.492492492492492,7.323119954760415,-1.7058899173057696
12.552552552552552,7.227546582236398,-1.362974928944203
12.612612612612612,7.168323914709853,-0.5727303474820487
12.672672672672672,7.1594659006489785,0.26265574701499
12.732732732732732,7.1970412314083525,0.9594963349997343
12.792792792792792,7.270708294416666,1.457001106595092
12.852852852852854,7.3674991819114375,1.7294497961200443
12.912912912912914,7.473753527169906,1.7714426465888706
12.972972972972974,7.576320987023384,1.612825664699957
13.033033033033034,7.664482919836621,1.3052334537891372
13.093093093093094,7.730957324561999,0.8882690985628231
13.153153153153154,7.769490897858773,0.37615080890497277
13.213213213213214,7.774108267553238,-0.2575563200646108
13.273273273273274,7.7345562769848915,-1.0833891608905697
13.333333333333334,7.639766819184523,-2.097726929969507
13.393393393393394,7.481975506881246,-3.073717977006388
13.453453453453454,7.289166727805357,-3.191464552163371
13.513513513513514,7.117145012105528,-2.4419454982393236
13.573573573573574,6.997682046495965,-1.5438194185573177
13.633633633633634,6.927550804188194,-0.8328014158118178
13.693693693693694,6.8941077466406355,-0.3056801706442587
13.753753753753754,6.888655320541671,0.10997241991593276
13.813813813813814,6.905996672869493,0.46085877614280996
13.873873873873874,6.943194408007305,0.7710798442240838
13.933933933933934,6.997840606573458,1.0410585823621825
13.993993993993994,7.066949352363462,1.2467241816819796
14.054054054054054,7.145350127893578,1.3420229613562826
14.114114114114114,7.225093000497126,1.284572736546845
14.174174174174174,7.296517216815553,1.0675379951492554
14.234234234234235,7.351077047626561,0.7420963640504945
14.294294294294295,7.386089553171081,0.4383281760273076
14.354354354354355,7.406652047429545,0.276558416758792
14.414414414414415,7.422805161319547,0.28690484646856185
14.474474474474475,7.443151250151161,0.39924354503302906
14.534534534534535,7.470782434267444,0.5147524261962924
14.594594594594595,7.5036978844691165,0.5673342083897318
14.654654654654655,7.537121406901906,0.5303707262031347
14.714714714714715,7.565554036333843,0.40084090262185923
14.774774774774775,7.583442707243182,0.1789525958533167
14.834834834834835,7.585202122433543,-0.14127502707654088
14.894894894894895,7.564113637552584,-0.5806346350509186
14.954954954954955,7.512652600239814,-1.1538681151285166
15.015015015015015,7.42330087810142,-1.8276926923289345
15.075075075075075,7.295860830622178,-2.3500419481004315
15.135135135135135,7.154960331772204,-2.2020358567666323
15.195195195195195,7.0464242184738435,-1.3286313691762182
15.255255255255255,6.99936568420343,-0.23562202134122945
15.315315315315315,7.01634171993732,0.7760154000734715
15.375375375375375,7.0896395628405084,1.6330780104908524
15.435435435435435,7.20855535125659,2.2928737629927403
15.495495495495495,7.359436934276851,2.6819085848071738
15.555555555555555,7.524161914678631,2.757233012411078
15.615615615615615,7.68533661689214,2.5685318536548625
15.675675675675675,7.830284752480406,2.2506803942821945
15.735735735735735,7.955475328838072,1.9207145429889492
15.795795795795796,8.062360006311238,1.6508691823721535
15.855855855855856,8.15585194696008,1.470611002856854
15.915915915915916,8.241202979843585,1.388379746349803
15.975975975975976,8.324295286988294,1.4039329751071525
16.036036036036037,8.411416490422342,1.5129084051687913
16.096096096096097,8.508087509696841,1.7239256574663115
16.156156156156158,8.62079796557026,2.0503936567549785
16.216216216216218,8.75672900156199,2.5029813307779842
16.276276276276278,8.923932429373998,3.0760006134299314
16.336336336336338,9.127685319624957,3.6971814739466193
16.396396396396398,9.365177934719439,4.171549965067961
16.456456456456458,9.620925727006615,4.289354142100889
16.516516516516518,9.873094412520244,4.062427265319175
16.576576576576578,10.10729868837754,3.7382938434542856
16.636636636636638,10.3257630070684,3.574843674011151
16.696696696696698,10.54275069087778,3.7081450863219803
16.756756756756758,10.77815878664954,4.204376363938216
16.816816816816818,11.055458853957024,5.050468151239992
16.876876876876878,11.381980798380724,5.7114878821793935
16.936936936936938,11.719000419758753,5.324498017699724
16.996996996996998,12.006860698266674,4.2225235031198896
17.057057057057058,12.228754003511114,3.210434472794981
17.117117117117118,12.398922153449156,2.5039391848433654
17.177177177177178,12.535452881529828,2.0826662451059668
17.237237237237238,12.653775924534832,1.8990795460488847
17.2972972972973,12.766897540038682,1.9046643700512622
17.35735735735736,12.885358894077674,2.0738427215606148
17.41741741741742,13.01894309116688,2.37833995272042
17.47747747747748,13.17264669788093,2.7330027800278707
17.53753753753754,13.34580120320743,3.0018836921276457
17.5975975975976,13.527016580601916,2.9873456202314923
17.65765765765766,13.69667884384676,2.5835501847783644
17.71771771771772,13.831269218767218,1.842154556257459
17.77777777777778,13.913355276214375,0.8603186051147678
17.83783783783784,13.931686343226938,-0.250925828153731
17.8978978978979,13.883779017664457,-1.3134752687088258
17.95795795795796,13.782800824646705,-1.9668997303275917
18.01801801801802,13.660797058241725,-1.9697241722356311
18.07807807807808,13.55487280887208,-1.521113950114668
18.13813813813814,13.479916815142882,-0.9683678176500277
18.1981981981982,13.436313617513292,-0.5136369904831226
18.25825825825826,13.415442563688988,-0.20092816562906335
18.31831831831832,13.410149664731065,0.009380223676021315
18.37837837837838,13.414822232655556,0.13353354032899287
18.43843843843844,13.424842505700488,0.18783468915302687
18.4984984984985,13.436310472059036,0.19131224828846213
18.55855855855856,13.447646629936326,0.19002633550519965
18.61861861861862,13.460432693307673,0.252896819315036
18.67867867867868,13.480727447088585,0.4474676495665256
18.73873873873874,13.516884507943736,0.7778785362208945
18.7987987987988,13.57517914854087,1.161580122409954
18.85885885885886,13.654932958924858,1.4674600782884242
18.91891891891892,13.747726849575207,1.5911583907371991
18.97897897897898,13.842085762736868,1.5174815891244247
19.03903903903904,13.927216865612024,1.299430790069131
19.0990990990991,13.996711804938013,1.0065920346864572
19.15915915915916,14.047611997444452,0.6876377835462646
19.21921921921922,14.079150333910562,0.36079143388279583
19.27927927927928,14.090705125074805,0.01794038060972103
19.33933933933934,14.080769393340777,-0.36479844242860376
19.3993993993994,14.04758692389905,-0.8145506175860557
19.45945945945946,13.976647537582684,-1.5170631325896773
19.51951951951952,13.857006342040181,-2.4432737684925963
19.57957957957958,13.685651044919524,-3.264515016994143
19.63963963963964,13.48695256363026,-3.1447972863574405
19.6996996996997,13.320916437070249,-2.215872725380356
19.75975975975976,13.220328642704446,-1.1181430888721628
19.81981981981982,13.185589560131744,-0.20256629745410848
19.87987987987988,13.195028699910393,0.48081860983830205
19.93993993993994,13.241116208832057,1.032231444524315
20.0,13.316798082381132,1.4741258274866738
20.06006006006006,13.4154370189754,1.785261504722575
20.12012012012012,13.5276434754004,1.9189319825496443
20.18018018018018,13.641567911174748,1.8354645407445547
20.24024024024024,13.744781845177126,1.5405285816719845
20.3003003003003,13.822154188049527,1.0009101374220555
20.36036036036036,13.859158633541094,0.21978263081634286
20.42042042042042,13.845157938354959,-0.6986190503049765
20.48048048048048,13.774893374861573,-1.6239398889449566
20.54054054054054,13.65688588575947,-2.2069323522095967
20.6006006006006,13.526650610347263,-1.9874711189343726
20.66066066066066,13.429915809129263,-1.1834669340786341
20.72072072072072,13.385046358312408,-0.3258766095055653
20.78078078078078,13.38785798958987,0.3909768181151735
20.84084084084084,13.428654494476145,0.9372178939175007
20.9009009009009,13.497001143978066,1.3087968164023
20.96096096096096,13.582056800701073,1.4928755066267227
21.02102102102102,13.672204068426902,1.4767431217584717
21.08108108108108,13.755363514749707,1.2606004960181298
21.14114114114114,13.820021127339382,0.8611613285954194
21.2012012012012,13.855707975257614,0.2965853113823451
21.26126126126126,13.852174254486902,-0.4394196428679623
21.32132132132132,13.799994418552048,-1.3136514076935053
