time[s],theta[rad],thetap[rad/s]
0.0,0.0,0.0
0.06006006006006006,1.597869989461171e-06,7.905897806118154e-05
0.12012012012012012,1.2292127589782622e-05,0.00029760157217042046
0.18018018018018017,3.917888252832702e-05,0.0006075835315026846
0.24024024024024024,8.588159853936517e-05,0.0009455902266666193
0.3003003003003003,0.00015212117034821802,0.0012512521489236024
0.36036036036036034,0.00023454667908252266,0.0014766663696502338
0.42042042042042044,0.00032728486047569575,0.0015917396220932161
0.4804804804804805,0.00042325401390400823,0.001582621864118434
0.5405405405405406,0.0005148959186879961,0.001449887361833859
0.6006006006006006,0.0005952871762483883,0.0012099969879623524
0.6606606606606606,0.0006586842166528202,0.0008944185568543234
0.7207207207207207,0.0007022349316023821,0.0005536312599928457
0.7807807807807807,0.0007259062704910748,0.00024932908666252217
0.8408408408408409,0.0007341041186370642,4.317407446664837e-05
0.9009009009009009,0.0007340446382279511,-1.8907986681244375e-05
0.960960960960961,0.0007350136717497084,7.664034130006029e-05
1.021021021021021,0.0007459855048227784,0.0003072440911415532
1.0810810810810811,0.0007735673140909482,0.0006216347484398331
1.1411411411411412,0.0008210544599071627,0.0009559778419169446
1.2012012012012012,0.0008876235552776006,0.0012515981038312251
1.2612612612612613,0.0009696567468437975,0.0014610823651385317
1.3213213213213213,0.001060953812870161,0.0015593746738405052
1.3813813813813813,0.0011543566157678163,0.001531029640500978
1.4414414414414414,0.0012424103446882814,0.001381513920037796
1.5015015015015014,0.001318233117343105,0.001127310273306192
1.5615615615615615,0.0013763615795349105,0.0008028622398092704
1.6216216216216217,0.001414389394011738,0.00046028406548449764
1.6816816816816818,0.0014325397789899993,0.00016309169218263388
1.7417417417417418,0.001435968023166424,-2.987987423687119e-05
1.8018018018018018,0.001432032028316955,-7.468769363581941e-05
1.8618618618618619,0.0014301609901157203,3.727201620017269e-05
1.921921921921922,0.0014391019744808226,0.00027904961001809134
1.981981981981982,0.0014652246112645967,0.0005969491647466229
2.042042042042042,0.0015110836468775757,0.0009270189715830779
2.1021021021021022,0.0015756342285518042,0.0012112566171589882
2.1621621621621623,0.0016547721325197852,0.001405994568662895
2.2222222222222223,0.001742226458158785,0.001485860338106981
2.2822822822822824,0.0018307151522562405,0.0014400522203588187
2.3423423423423424,0.0019128075322119656,0.001273596591468542
2.4024024024024024,0.001981620689927622,0.00100551737189739
2.4624624624624625,0.0020323835164345067,0.0006738911944794005
2.5225225225225225,0.0020622838399523484,0.00033094435866708205
2.5825825825825826,0.002073100554739942,4.066452869237112e-05
2.6426426426426426,0.002069514300928276,-0.00013722067649119012
2.7027027027027026,0.0020596592158301686,-0.0001642977141841116
2.7627627627627627,0.002052912656911729,-3.6084832350917806e-05
2.8228228228228227,0.0020578061795497693,0.00021633602214087862
2.8828828828828827,0.00208027346908631,0.0005370215244943188
2.942942942942943,0.0021224225658094302,0.0008620024669111317
3.003003003003003,0.002182756306191464,0.001134808486093058
3.063063063063063,0.0022568411571308503,0.0013141431376215511
3.123123123123123,0.002338254063566907,0.001376154523168202
3.183183183183183,0.002419662956285427,0.0013129084057898093
3.2432432432432434,0.0024935076784190044,0.001129518953148992
3.3033033033033035,0.0025534801428095466,0.0008499034179545329
3.3633633633633635,0.0025943307604682545,0.00051066654965657
3.4234234234234235,0.002614689878330745,0.00016893919405422164
3.4834834834834836,0.0026159169266482497,-0.0001120231504566904
3.5435435435435436,0.0026036034647116775,-0.0002742435336660123
3.6036036036036037,0.0025860539751404107,-0.0002833073236802964
3.6636636636636637,0.0025726850478297344,-0.00013877894938931908
3.7237237237237237,0.0025717878484803826,0.00012385321531658828
3.7837837837837838,0.0025887261350780264,0.0004469221597040645
3.843843843843844,0.002625398697307025,0.0007659027163645937
3.903903903903904,0.002679600908121772,0.001027428106129832
3.963963963963964,0.0027467951997895155,0.0011906865688946096
4.024024024024024,0.0028202894310075687,0.001235814036342854
4.084084084084084,0.0028926576361021647,0.0011543417854009148
4.1441441441441444,0.0029566570251889756,0.0009565428034625173
4.2042042042042045,0.0030056026546391697,0.0006640938725094017
4.2642642642642645,0.003035415464481121,0.00032024764209508615
4.324324324324325,0.0030441475509372026,-1.8903706597656706e-05
4.384384384384385,0.0030344429377152956,-0.0002894576554671064
4.444444444444445,0.003011954881726876,-0.00043501339148263346
4.504504504504505,0.0029853140231908535,-0.0004251636858890792
4.564564564564565,0.002963947067550977,-0.00026437921654869605
4.624624624624625,0.0029558077617725977,7.892535031204682e-06
4.684684684684685,0.002965925056862135,0.00033243391063703445
4.744744744744745,0.0029955123605378787,0.0006457608293113468
4.804804804804805,0.003042209087908314,0.0008948826238681406
4.864864864864865,0.0031009744668457745,0.0010431562173087146
4.924924924924925,0.0031650999236194316,0.0010708685343505304
4.984984984984985,0.0032270519100750135,0.0009725324288032739
5.045045045045045,0.003279607353343643,0.0007596220673912384
5.105105105105105,0.00331649391377485,0.0004572298120375798
5.165165165165165,0.0033336091684664617,0.00010928067152383568
5.225225225225225,0.003329884568304884,-0.0002258117687736647
5.285285285285285,0.0033080176521641308,-0.000483937166649607
5.345345345345345,0.003274380528407226,-0.0006117024041787728
5.405405405405405,0.003237724747919607,-0.0005823986840855735
5.465465465465465,0.003207389959853259,-0.0004056956098775825
5.525525525525525,0.003191076697308088,-0.00012382650692577702
5.585585585585585,0.003193430932700191,0.00020156581386191185
5.645645645645645,0.0032149406193009,0.0005089257870613829
5.7057057057057055,0.0032531080249285807,0.0007456526464967009
5.7657657657657655,0.0033024542815406656,0.0008788434963039056
5.8258258258258255,0.003356174524744325,0.0008891599719018866
5.885885885885886,0.0034068018711549907,0.0007754318309068851
5.945945945945946,0.003446994586037376,0.0005479424430033178
6.006006006006006,0.0034709705026557025,0.00023675994889126316
6.066066066066066,0.003474605974308393,-0.00011384489571335786
6.126126126126126,0.0034576973440290618,-0.0004435261390038776
6.186186186186186,0.003423096928714869,-0.000687200204746749
6.246246246246246,0.0033777744634179746,-0.0007968278807823617
6.306306306306306,0.0033306931681330904,-0.0007465085587573146
6.366366366366366,0.003290917726110015,-0.0005541440674253662
6.426426426426427,0.0032661425330861955,-0.0002633307359896704
6.486486486486487,0.003260049902110175,6.312168840307504e-05
6.546546546546547,0.0032731395763980417,0.0003633264953247594
6.606606606606607,0.003302197096465872,0.0005883422586089933
6.666666666666667,0.0033416534550194405,0.0007060525484308649
6.726726726726727,0.003384514028789036,0.0007002518757429312
6.786786786786787,0.0034232896062282234,0.0005705025922168446
6.846846846846847,0.0034508137431597716,0.000330460287225589
6.906906906906907,0.0034614020491615808,1.1147668398851058e-05
6.966966966966967,0.0034514852666876527,-0.00034020436589058355
7.027027027027027,0.0034211185628564896,-0.0006620142570805993
7.087087087087087,0.003373848491050589,-0.0008907774000008095
7.147147147147147,0.0033169190216806544,-0.0009794578807888245
7.207207207207207,0.0032593942566566943,-0.0009098968332051377
7.267267267267267,0.003210451741026248,-0.0007008201408002174
7.327327327327327,0.003177052791453326,-0.00040155565715378506
7.387387387387387,0.0031627551371693732,-7.489877641415385e-05
7.4474474474474475,0.0031673643423849648,0.0002184597756650977
7.5075075075075075,0.0031873730410905106,0.0004314004497653343
7.5675675675675675,0.0032169630347532972,0.0005339188267662226
7.627627627627628,0.003249014404605508,0.0005121755284549462
7.687687687687688,0.003276031844139028,0.0003675935831397098
7.747747747747748,0.00329099215901796,0.00011558079494902761
7.807807807807808,0.0032884525278717206,-0.00021031532118732932
7.867867867867868,0.0032652116073517627,-0.0005606677693780577
7.927927927927928,0.003221843327332882,-0.0008731327617124159
7.987987987987988,0.003162390845989097,-0.0010854011842961401
8.048048048048049,0.0030943891490331932,-0.0011527009702841972
8.108108108108109,0.003027105176442312,-0.0010622117325174794
8.168168168168169,0.002969534134647842,-0.0008372597243379992
8.228228228228229,0.002928162795684636,-0.0005297663015911403
8.288288288288289,0.0029062572308222842,-0.00020353590232144095
8.348348348348349,0.0029029246699016588,8.295141559147695e-05
8.408408408408409,0.0029144728977320974,0.00028319246430621845
8.468468468468469,0.0029347329547891486,0.00037154470522437295
8.528528528528529,0.0029565209479803195,0.00033382613284662504
8.588588588588589,0.002972462757653358,0.00017555598934740802
8.64864864864865,0.002975440158656178,-8.78188174966735e-05
8.70870870870871,0.002960537724520112,-0.00041880167662991817
8.76876876876877,0.002924786711567947,-0.0007665641447286007
8.82882882882883,0.002869340428588006,-0.0010680225077166843
8.88888888888889,0.0027987075143866315,-0.001261992559923101
8.94894894894895,0.0027207552702897104,-0.001307216522836313
9.00900900900901,0.002644813837541368,-0.0011958218243388794
9.06906906906907,0.002579750198659801,-0.0009550976572014443
9.12912912912913,0.002531608974771093,-0.0006400967034795352
9.18918918918919,0.0025030537713669984,-0.0003143810344311579
9.24924924924925,0.002492902047600044,-3.587575068124285e-05
9.30930930930931,0.002496937350968671,0.00015283581186594094
9.36936936936937,0.0025089287688907598,0.0002259852568768261
9.42942942942943,0.0025215597695877772,0.00017379679889969815
9.48948948948949,0.002527405961483559,1.4640952203894735e-06
9.54954954954955,0.0025197062352870863,-0.00027114312502118335
9.60960960960961,0.0024935645115977114,-0.0006061403443290654
9.66966966966967,0.002446719262418057,-0.0009499001345487835
9.72972972972973,0.0023805476221290586,-0.001238618813912513
9.78978978978979,0.0023002208512739337,-0.0014123533028980717
9.84984984984985,0.002213910790511909,-0.0014354433650010827
9.90990990990991,0.002130989993974916,-0.0013024814161730755
9.96996996996997,0.0020599555647296043,-0.001046863307314198
10.03003003003003,0.002006557336073269,-0.0007247471405849728
10.09009009009009,0.0019729378781120554,-0.00040041536736967027
10.15015015015015,0.00195739067677379,-0.00012961787884871193
10.21021021021021,0.0019554468467896597,4.669917730786569e-05
10.27027027027027,0.0019606382551659064,0.00010534940505712965
10.33033033033033,0.0019655990327730744,3.8812347413262716e-05
10.39039039039039,0.001962901910575899,-0.0001465316811544823
10.45045045045045,0.0019460491971659698,-0.0004277957424621483
10.51051051051051,0.0019104469171830286,-0.0007652727422088558
10.57057057057057,0.0018540723361096306,-0.0011032055035963921
10.63063063063063,0.0017791401223097023,-0.0013777816288992023
10.69069069069069,0.0016910618060073902,-0.0015312923935099168
10.75075075075075,0.0015983181481601277,-0.00153032048683172
10.81081081081081,0.0015102792201915338,-0.0013767062451690293
10.87087087087087,0.0014353407363594615,-0.0011061436525628744
10.93093093093093,0.0013785576937461511,-0.0007776209962538811
10.99099099099099,0.001341809952418266,-0.00045564283614054973
11.05105105105105,0.0013226781605951666,-0.0001925421521936105
11.11111111111111,0.0013166142990988015,-2.9269804074698053e-05
11.17117117117117,0.0013168348707329402,1.5764543551553136e-05
11.23123123123123,0.0013159220089733236,-6.568743730267714e-05
11.29129129129129,0.0013066062390925976,-0.00026276669162495506
11.35135135135135,0.001282514002713508,-0.000551824606608098
11.411411411411411,0.0012393075960202267,-0.0008905069121065764
11.471471471471471,0.0011757265060065615,-0.0012213476199453702
11.531531531531531,0.0010940351386554013,-0.0014798670782314412
11.591591591591591,0.0010004829050276618,-0.001611902269296596
11.651651651651651,0.0009036035098674627,-0.0015873559330820625
11.711711711711711,0.000812853613659278,-0.001412690641265318
11.771771771771771,0.0007361391862954683,-0.0011284665171351139
11.831831831831831,0.0006782734957696935,-0.0007946957311814554
11.891891891891891,0.0006403814095844912,-0.0004748749442289028
11.951951951951951,0.000619918704406199,-0.00022128994447780348
12.012012012012011,0.0006117452994155271,-6.970918756804665e-05
12.072072072072071,0.0006090892230081487,-3.9649944408395474e-05
12.132132132132131,0.000604480651985475,-0.00013434090146701485
12.192192192192191,0.0005906630502020801,-0.0003431033831671118
12.252252252252251,0.0005614904573628677,-0.0006390494202938643
12.312312312312311,0.000513098977470054,-0.0009775487177800355
12.372372372372372,0.0004443653311131853,-0.0012996963433495228
12.432432432432432,0.0003585239125833938,-0.0015418797597908076
12.492492492492492,0.0002618783752184307,-0.0016511891328370488
12.552552552552552,0.00016336917974007673,-0.0016027171994508504
12.612612612612612,7.231890978910376e-05,-0.0014079399342807857
12.672672672672672,-3.6605144654595613e-06,-0.0011107301401569103
12.732732732732732,-6.028509313406416e-05,-0.0007725918438770028
12.792792792792792,-9.691925282800064e-05,-0.0004562158993695863
12.852852852852854,-0.00011653160570363418,-0.00021175856582334118
12.912912912912914,-0.00012450348940833703,-7.321877384072127e-05
12.972972972972974,-0.000127788404773374,-5.724804750870862e-05
13.033033033033034,-0.00013386089465982745,-0.00016542880242547892
13.093093093093094,-0.00014991276973535617,-0.0003852323374377159
13.153153153153154,-0.0001818037588425581,-0.0006870128158418848
13.213213213213214,-0.00023315201407755358,-0.0010243027365067162
13.273273273273274,-0.0003043692075910886,-0.001336648291939342
13.333333333333334,-0.0003919457931630878,-0.0015611228348431613
13.393393393393394,-0.0004890686318970539,-0.0016471841314852423
13.453453453453454,-0.0005866196569971534,-0.0015751201562248436
13.513513513513514,-0.0006754244126799703,-0.0013610312722594762
13.573573573573574,-0.0007481933700809936,-0.0010518295573410158
13.633633633633634,-0.0008010917307431982,-0.0007105329899177511
13.693693693693694,-0.0008340953331575994,-0.0003985989001566855
13.753753753753754,-0.0008505374365865957,-0.00016395277369913493
13.813813813813814,-0.0008560235349910571,-3.851167180981597e-05
13.873873873873874,-0.0008576514588800572,-3.680219543407486e-05
13.933933933933934,-0.000862897536311116,-0.0001582774393104485
13.993993993993994,-0.0008788694138140623,-0.00038859081973594597
14.054054054054054,-0.0009111324681798159,-0.0006954268706917148
14.114114114114114,-0.0009629617472825638,-0.0010305015933037194
14.174174174174174,-0.0010342835048419371,-0.001331863168163288
14.234234234234235,-0.001121045689699753,-0.0015376401635376798
14.294294294294295,-0.0012160713419049707,-0.0016005134688552142
14.354354354354355,-0.0013101256052857433,-0.0015054143224860616
14.414414414414415,-0.001394120023233006,-0.001272661656516546
14.474474474474475,-0.0014612198711705553,-0.0009528572996528829
14.534534534534535,-0.0015081051941875107,-0.0006094389970637016
14.594594594594595,-0.0015351874549480889,-0.00030264167789476103
14.654654654654655,-0.0015461383720505627,-7.887684929297072e-05
14.714714714714715,-0.0015469072509621184,3.304960183212865e-05
14.774774774774775,-0.0015446633186071014,2.0512130842870612e-05
14.834834834834835,-0.0015469043284536566,-0.0001144128511983022
14.894894894894895,-0.0015605392341747374,-0.00035458962627740915
14.954954954954955,-0.0015908855717183619,-0.0006657787117108835
15.015015015015015,-0.001640955293482417,-0.000997656186807823
15.075075075075075,-0.0017099154074886184,-0.001287538969354995
15.135135135135135,-0.0017934933238711941,-0.0014739629560134532
15.195195195195195,-0.001884000730093446,-0.001513477553042316
15.255255255255255,-0.0019721136078993348,-0.0013955564611094482
15.315315315315315,-0.0020490130818371062,-0.0011456858533080737
15.375375375375375,-0.00210812411829964,-0.0008165824188560405
15.435435435435435,-0.0021467649111511955,-0.0004724748377854036
15.495495495495495,-0.002165788094883174,-0.00017205297071031797
15.555555555555555,-0.0021692165580390224,4.035032591806953e-05
15.615615615615615,-0.002163235707900858,0.00013831244813901025
15.675675675675675,-0.0021550941351669594,0.00011142851744785589
15.735735735735735,-0.002152311135811738,-3.689534804874543e-05
15.795795795795796,-0.002161555773126759,-0.0002863932340176048
15.855855855855856,-0.002188046499885247,-0.0006016618523509941
15.915915915915916,-0.0022341088735858485,-0.0009294016035184391
15.975975975975976,-0.002298666578332273,-0.0012067424624256388
16.036036036036037,-0.0023768285639508275,-0.0013734753772836994
16.096096096096097,-0.0024606173960359736,-0.001390014713178668
16.156156156156158,-0.002540646236620999,-0.0012504047205931697
16.216216216216218,-0.0026082646093134308,-0.0009844912388696898
16.276276276276278,-0.0026574816606477975,-0.0006476880951315865
16.336336336336338,-0.002685931217338162,-0.00030432700127683575
16.396396396396398,-0.002695057165259994,-1.1398434692826414e-05
16.456456456456458,-0.002689185169586346,0.00018890325315163608
16.516516516516518,-0.002674709010483063,0.000272407904620948
16.576576576576578,-0.002658950725699523,0.0002308606328100732
16.636636636636638,-0.002649419937667956,6.929742391393351e-05
16.696696696696698,-0.002652557121639504,-0.00018935534945901822
16.756756756756758,-0.002673400193306278,-0.0005080134466483306
16.816816816816818,-0.0027136882213025407,-0.0008311078135346415
16.876876876876878,-0.0027720313042876796,-0.0010950982209252571
16.936936936936938,-0.002842906490727235,-0.0012420557738660977
16.996996996996998,-0.0029181276425902522,-0.0012360258947184946
17.057057057057058,-0.0029882699670831466,-0.0010757651627783852
17.117117117117118,-0.0030449173936788858,-0.0007953059488839602
17.177177177177178,-0.003082517252324825,-0.0004525035333701182
17.237237237237238,-0.0030992976699468606,-0.00011116504961929271
17.2972972972973,-0.0030970343952585106,0.0001729592392865147
17.35735735735736,-0.0030804681654007095,0.0003603620499330728
17.41741741741742,-0.00305613119134376,0.0004290677068203501
17.47747747747748,-0.0030314624767053557,0.0003720875005785513
17.53753753753754,-0.0030137705000661623,0.00019800786516185632
17.5975975975976,-0.00300959716915426,-7.031208696733432e-05
17.65765765765766,-0.0030232579547309077,-0.0003912343249346155
17.71771771771772,-0.003056554543176401,-0.0007090815972907162
17.77777777777778,-0.00310712501360228,-0.0009596765268992868
17.83783783783784,-0.0031693053067169954,-0.0010867419496702344
17.8978978978979,-0.0032345320653018473,-0.0010585800085669349
17.95795795795796,-0.003293441816881358,-0.0008789854352834949
18.01801801801802,-0.0033377879914694435,-0.0005855612666074025
18.07807807807808,-0.0033627129115114053,-0.00023799170041922886
18.13813813813814,-0.0033665807757213054,9.906184699338906e-05
18.1981981981982,-0.0033520219158632105,0.0003740476950306798
18.25825825825826,-0.0033237593561109245,0.0005470799756468799
18.31831831831832,-0.0032886574055652064,0.000600786669202524
18.37837837837838,-0.0032541767259221654,0.0005280769692595129
18.43843843843844,-0.0032275406528597564,0.00034088651208936157
18.4984984984985,-0.0032150356189700954,6.389771159741472e-05
18.55855855855856,-0.0032208069948697826,-0.00025950162696255466
18.61861861861862,-0.003245961624647571,-0.0005714493228149256
18.67867867867868,-0.0032879492347406424,-0.0008078870059504838
18.73873873873874,-0.0033404213464546173,-0.000915382194370546
18.7987987987988,-0.0033947171987366485,-0.0008659944070348083
18.85885885885886,-0.0034414516951225436,-0.00066817167987099
18.91891891891892,-0.00347281835999654,-0.0003637215469756912
18.97897897897898,-0.003484221050261783,-1.36773496325598e-05
